freq,psd_x,psd_y,psd_z,psd_xyz
0.0,3.882e+02,9.847e+01,1.866e+01,5.054e+02
1.5,3.232e+02,3.928e+02,9.500e+01,8.110e+02
3.1,1.973e+02,4.694e+02,1.156e+02,7.823e+02
4.6,5.545e+02,4.642e+02,9.930e+01,1.118e+03
6.2,1.392e+03,4.423e+02,9.348e+01,1.928e+03
7.7,1.434e+03,4.285e+02,9.807e+01,1.961e+03
9.3,1.864e+03,5.316e+02,1.022e+02,2.498e+03
10.8,2.646e+03,4.810e+02,9.778e+01,3.225e+03
12.3,3.587e+03,4.600e+02,9.652e+01,4.144e+03
13.9,4.648e+03,4.589e+02,1.170e+02,5.224e+03
15.4,5.901e+03,4.863e+02,1.274e+02,6.515e+03
17.0,7.370e+03,4.244e+02,9.117e+01,7.886e+03
18.5,8.842e+03,4.992e+02,9.416e+01,9.435e+03
20.1,9.826e+03,4.890e+02,1.117e+02,1.043e+04
21.6,1.093e+04,4.696e+02,1.157e+02,1.151e+04
23.2,1.294e+04,4.857e+02,1.074e+02,1.354e+04
24.7,1.568e+04,5.283e+02,1.110e+02,1.632e+04
26.2,1.894e+04,4.934e+02,1.059e+02,1.954e+04
27.8,2.259e+04,5.257e+02,1.075e+02,2.322e+04
29.3,2.559e+04,6.150e+02,1.258e+02,2.634e+04
30.9,2.804e+04,6.044e+02,1.227e+02,2.877e+04
32.4,3.081e+04,6.618e+02,1.280e+02,3.160e+04
34.0,3.452e+04,6.580e+02,1.337e+02,3.531e+04
35.5,3.836e+04,6.727e+02,1.348e+02,3.917e+04
37.0,4.241e+04,6.727e+02,1.200e+02,4.320e+04
38.6,4.700e+04,7.835e+02,1.069e+02,4.789e+04
40.1,5.177e+04,8.779e+02,1.176e+02,5.277e+04
41.7,5.831e+04,1.024e+03,1.361e+02,5.947e+04
43.2,6.456e+04,1.410e+03,1.203e+02,6.609e+04
44.8,7.095e+04,2.599e+03,1.351e+02,7.368e+04
46.3,7.939e+04,5.947e+03,2.585e+02,8.560e+04
47.9,8.744e+04,1.151e+04,5.984e+02,9.955e+04
49.4,9.307e+04,1.333e+04,8.811e+02,1.073e+05
50.9,1.024e+05,1.115e+04,8.815e+02,1.144e+05
52.5,1.176e+05,8.719e+03,7.868e+02,1.271e+05
54.0,1.355e+05,6.792e+03,7.295e+02,1.430e+05
55.6,1.537e+05,5.343e+03,7.106e+02,1.598e+05
57.1,1.680e+05,4.304e+03,6.653e+02,1.729e+05
58.7,1.879e+05,4.149e+03,6.811e+02,1.927e+05
60.2,2.206e+05,4.505e+03,7.427e+02,2.259e+05
61.7,2.594e+05,4.833e+03,8.086e+02,2.650e+05
63.3,3.006e+05,5.172e+03,8.602e+02,3.067e+05
64.8,3.483e+05,5.621e+03,1.031e+03,3.549e+05
66.4,4.155e+05,6.258e+03,1.362e+03,4.231e+05
67.9,4.885e+05,7.667e+03,1.423e+03,4.976e+05
69.5,6.110e+05,1.019e+04,1.751e+03,6.230e+05
71.0,7.348e+05,1.368e+04,2.429e+03,7.509e+05
72.5,8.216e+05,1.762e+04,3.235e+03,8.425e+05
74.1,8.947e+05,2.340e+04,5.151e+03,9.233e+05
75.6,9.670e+05,3.019e+04,8.779e+03,1.006e+06
77.2,1.008e+06,3.777e+04,1.035e+04,1.056e+06
78.7,1.040e+06,4.733e+04,1.115e+04,1.099e+06
80.3,1.054e+06,5.229e+04,1.213e+04,1.118e+06
81.8,9.580e+05,5.281e+04,1.086e+04,1.022e+06
83.4,8.411e+05,5.148e+04,9.285e+03,9.019e+05
84.9,7.950e+05,4.660e+04,1.011e+04,8.517e+05
86.4,7.459e+05,4.124e+04,1.016e+04,7.973e+05
88.0,6.891e+05,3.685e+04,8.928e+03,7.348e+05
89.5,6.569e+05,3.452e+04,7.813e+03,6.992e+05
91.1,6.598e+05,3.115e+04,7.809e+03,6.987e+05
92.6,6.798e+05,3.114e+04,7.672e+03,7.186e+05
94.2,7.054e+05,3.072e+04,7.902e+03,7.440e+05
95.7,7.264e+05,2.869e+04,8.512e+03,7.636e+05
97.2,7.268e+05,2.513e+04,8.989e+03,7.609e+05
98.8,7.011e+05,2.061e+04,9.348e+03,7.311e+05
100.3,6.467e+05,1.561e+04,9.680e+03,6.720e+05
101.9,5.773e+05,1.034e+04,9.773e+03,5.974e+05
103.4,5.332e+05,8.130e+03,8.400e+03,5.497e+05
105.0,5.498e+05,1.434e+04,3.358e+03,5.675e+05
106.5,5.702e+05,1.896e+04,7.838e+02,5.900e+05
108.0,5.519e+05,1.863e+04,7.257e+02,5.712e+05
109.6,5.248e+05,1.779e+04,8.548e+02,5.435e+05
111.1,4.932e+05,1.644e+04,9.930e+02,5.107e+05
112.7,4.584e+05,1.535e+04,1.242e+03,4.750e+05
114.2,4.182e+05,1.474e+04,1.624e+03,4.346e+05
115.8,3.797e+05,1.389e+04,1.669e+03,3.953e+05
117.3,3.543e+05,1.403e+04,1.493e+03,3.698e+05
118.9,3.277e+05,1.468e+04,1.274e+03,3.436e+05
120.4,3.024e+05,1.573e+04,1.116e+03,3.193e+05
121.9,2.794e+05,1.811e+04,1.209e+03,2.987e+05
123.5,2.587e+05,2.274e+04,1.660e+03,2.831e+05
125.0,2.365e+05,3.026e+04,2.401e+03,2.691e+05
126.6,2.116e+05,3.977e+04,2.995e+03,2.544e+05
128.1,1.960e+05,5.293e+04,3.270e+03,2.522e+05
129.7,2.000e+05,6.954e+04,3.379e+03,2.729e+05
131.2,2.286e+05,8.124e+04,3.970e+03,3.138e+05
132.7,1.772e+05,5.886e+04,3.563e+03,2.396e+05
134.3,3.267e+04,1.286e+04,1.056e+03,4.659e+04
135.8,7.939e+03,5.945e+03,4.172e+02,1.430e+04
137.4,7.688e+03,5.855e+03,3.519e+02,1.390e+04
138.9,7.801e+03,5.521e+03,3.416e+02,1.366e+04
140.5,8.439e+03,5.163e+03,3.392e+02,1.394e+04
142.0,9.219e+03,4.553e+03,3.275e+02,1.410e+04
143.6,9.862e+03,3.908e+03,2.871e+02,1.406e+04
145.1,1.026e+04,3.171e+03,2.647e+02,1.369e+04
146.6,1.086e+04,2.464e+03,3.282e+02,1.365e+04
148.2,1.257e+04,1.867e+03,4.485e+02,1.488e+04
149.7,1.567e+04,1.455e+03,4.871e+02,1.761e+04
151.3,1.630e+04,1.254e+03,3.532e+02,1.791e+04
152.8,1.574e+04,1.080e+03,2.646e+02,1.709e+04
154.4,1.479e+04,1.058e+03,2.319e+02,1.608e+04
155.9,1.371e+04,9.928e+02,2.363e+02,1.494e+04
157.4,1.252e+04,8.165e+02,2.709e+02,1.361e+04
159.0,1.098e+04,7.773e+02,2.791e+02,1.203e+04
160.5,9.758e+03,7.132e+02,2.583e+02,1.073e+04
162.1,9.168e+03,6.141e+02,2.133e+02,9.995e+03
163.6,8.712e+03,6.830e+02,1.894e+02,9.584e+03
165.2,8.346e+03,7.559e+02,1.733e+02,9.275e+03
166.7,8.080e+03,7.565e+02,1.709e+02,9.007e+03
168.2,8.174e+03,6.673e+02,2.015e+02,9.043e+03
169.8,8.510e+03,7.122e+02,2.336e+02,9.455e+03
171.3,1.058e+04,7.819e+02,2.240e+02,1.158e+04
172.9,1.282e+04,8.089e+02,2.047e+02,1.383e+04
174.4,1.242e+04,7.266e+02,1.755e+02,1.332e+04
176.0,1.149e+04,6.131e+02,1.629e+02,1.227e+04
177.5,1.068e+04,6.484e+02,1.734e+02,1.150e+04
179.1,1.012e+04,6.681e+02,1.880e+02,1.098e+04
180.6,9.282e+03,6.223e+02,1.846e+02,1.009e+04
182.1,8.314e+03,6.289e+02,1.806e+02,9.123e+03
183.7,7.506e+03,6.438e+02,1.915e+02,8.341e+03
185.2,6.856e+03,7.183e+02,2.067e+02,7.780e+03
186.8,6.224e+03,7.498e+02,2.305e+02,7.204e+03
188.3,5.496e+03,6.987e+02,2.649e+02,6.459e+03
189.9,4.850e+03,7.249e+02,2.909e+02,5.865e+03
191.4,4.123e+03,6.373e+02,2.911e+02,5.052e+03
192.9,3.586e+03,5.770e+02,3.131e+02,4.477e+03
194.5,3.264e+03,6.432e+02,3.571e+02,4.265e+03
196.0,3.093e+03,6.493e+02,4.197e+02,4.161e+03
197.6,3.370e+03,5.878e+02,5.398e+02,4.498e+03
199.1,3.786e+03,4.806e+02,6.511e+02,4.918e+03
